"('date', '')","('open', 'ATR')","('high', 'ATR')","('low', 'ATR')","('close', 'ATR')","('volume', 'ATR')"
2024-01-02 00:00:00+00:00,120.1220862446278,121.58185013831563,119.80857975454884,120.38660430908203,313100
2024-01-03 00:00:00+00:00,122.61055386466067,124.67773996402705,120.65113632778902,122.81629180908203,531700
2024-01-04 00:00:00+00:00,122.63992889025884,123.36491119710013,121.6112318197348,121.69940948486328,353300
2024-01-05 00:00:00+00:00,121.26834134079236,121.84637335891131,120.49437057307142,121.67981719970703,423000
2024-01-08 00:00:00+00:00,121.55245735879679,122.6203437219808,119.88695556892361,121.82677459716797,352400
2024-01-09 00:00:00+00:00,121.19974414426487,122.1108733971592,120.4747619082297,122.10107421875,250300
2024-01-10 00:00:00+00:00,121.93455144243826,122.87507095562641,121.70922261327671,122.64974212646484,279600
2024-01-11 00:00:00+00:00,122.83589185748842,124.39363280227131,122.40482504994266,124.26626586914062,323100
2024-01-12 00:00:00+00:00,125.29493669804144,125.37331518272018,123.36490949168396,123.86456298828125,231700
2024-01-16 00:00:00+00:00,123.32573276089688,124.24666136284209,122.9632453130044,124.23686218261719,257500
2024-01-17 00:00:00+00:00,123.38451929806057,124.68752622246804,123.33553087194517,124.11930084228516,336900
2024-01-18 00:00:00+00:00,124.73652258996833,127.37193414698734,123.74701462119829,126.51959228515625,444200
2024-01-19 00:00:00+00:00,127.07801048425671,128.7925005531534,125.93173825435592,128.14588928222656,418000
2024-01-22 00:00:00+00:00,128.24386072930545,129.1353992193607,127.91076336461497,128.52798461914062,266200
2024-01-23 00:00:00+00:00,129.12562396976008,129.17461240002655,127.68545082511258,129.15501403808594,217800
2024-01-24 00:00:00+00:00,129.43911842509647,129.60566712276062,127.89117676842022,128.12631225585938,294400
2024-01-25 00:00:00+00:00,129.35093303258222,129.69383704284826,127.73441972513994,128.58676147460938,332300
2024-01-26 00:00:00+00:00,129.008020050622,129.8995584559787,128.7337028411533,129.02761840820312,219900
2024-01-29 00:00:00+00:00,128.39081991020947,129.8995646340438,127.84218546517883,129.56646728515625,187800
2024-01-30 00:00:00+00:00,129.35093018901313,130.38941895270224,128.95905271375335,129.56646728515625,228400
2024-01-31 00:00:00+00:00,130.0873253563179,130.48043650723613,126.93268897185581,127.64027404785156,537500
2024-02-01 00:00:00+00:00,128.210284392237,128.84906944537792,127.3749362498297,128.2495880126953,298800
2024-02-02 00:00:00+00:00,127.71889830338374,128.45596485292953,126.47079474736881,127.85648345947266,344800
2024-02-05 00:00:00+00:00,126.90322557467078,129.1832105919242,125.84184780959,128.39700317382812,319500
2024-02-06 00:00:00+00:00,128.22994377262134,129.13407710598773,127.07029938710578,128.86874389648438,369700
2024-02-07 00:00:00+00:00,129.14391707769028,130.13649483588839,127.13908725483611,129.52719116210938,393000
2024-02-08 00:00:00+00:00,129.3699410767649,132.51475586375486,129.27165952268467,129.84165954589844,620700
2024-02-09 00:00:00+00:00,129.83181003231815,136.80937902331937,129.24215082340154,136.56369018554688,650900
2024-02-12 00:00:00+00:00,136.76025826915549,138.04766556816827,135.13870270517623,135.2369842529297,491300
2024-02-13 00:00:00+00:00,134.3328565630816,134.96181950605146,132.6523379990828,133.58595275878906,275900
2024-02-14 00:00:00+00:00,133.91025435694849,135.08957291230726,132.83905449830064,134.8045654296875,335000
2024-02-15 00:00:00+00:00,134.80456234478305,135.43352522860715,132.24940718984803,132.71128845214844,471400
2024-02-16 00:00:00+00:00,133.03560180428352,135.62025346235794,132.71129070304673,135.12887573242188,453900
2024-02-20 00:00:00+00:00,134.77508324759495,137.72334962897358,134.5883573108023,137.28111267089844,373000
2024-02-21 00:00:00+00:00,136.68165155359478,137.69388862865245,136.59320714796695,137.58578491210938,276300
2024-02-22 00:00:00+00:00,138.04765534448416,139.96402541848155,137.65455917390028,139.03041076660156,295700
2024-02-23 00:00:00+00:00,139.5218142818624,139.6004365296517,138.17544390316425,138.92233276367188,190300
2024-02-26 00:00:00+00:00,139.0599007469087,139.6102414176971,138.3719749084232,139.47265625,199200
2024-02-27 00:00:00+00:00,139.4726636459914,139.72817468650427,137.38922671162328,137.8904266357422,244600
2024-02-28 00:00:00+00:00,137.24180469103877,138.80439739096937,136.92733071706255,137.98870849609375,189600
2024-02-29 00:00:00+00:00,138.2049084295745,139.18766391297748,137.41870104372035,138.037841796875,250600
2024-03-01 00:00:00+00:00,137.46783971131777,138.3621357908153,137.15335076352994,137.87075805664062,151400
2024-03-04 00:00:00+00:00,138.26385933644843,139.66919235759693,138.136096336105,139.511962890625,260300
2024-03-05 00:00:00+00:00,139.8166280215735,140.7404205832,139.2957688105558,140.06231689453125,190200
2024-03-06 00:00:00+00:00,140.4652288211007,141.16299178645747,140.0229918691475,140.6028289794922,184000
2024-03-07 00:00:00+00:00,142.0081712849515,142.63713421192352,141.35954904898247,142.15557861328125,250100
2024-03-08 00:00:00+00:00,142.2145564227456,142.5683490061037,140.50455643723834,140.6224822998047,185200
2024-03-11 00:00:00+00:00,140.32764445285224,140.9074815664798,139.53161493569797,140.2785186767578,226700
2024-03-12 00:00:00+00:00,140.33748240282063,140.38662317485273,139.04023800033278,139.95420837402344,242200
2024-03-13 00:00:00+00:00,140.5340510094949,140.5340510094949,138.49973971654538,138.7257843017578,336800
2024-03-14 00:00:00+00:00,138.92231800430977,139.17782903573368,137.939562504844,138.49972534179688,235200
2024-03-15 00:00:00+00:00,137.62507533186763,139.95421609285467,137.33026067473173,138.5685272216797,599500
2024-03-18 00:00:00+00:00,138.4997357748605,138.8633655341028,136.53422462786872,136.85853576660156,299700
2024-03-19 00:00:00+00:00,136.485076557359,137.9002467513978,136.485076557359,137.1042022705078,253000
2024-03-20 00:00:00+00:00,137.22215639904493,137.65457122192834,136.74060080162315,137.55628967285156,220000
2024-03-21 00:00:00+00:00,137.89042682846505,139.15818986721334,136.8978491357468,138.70611572265625,255800
2024-03-22 00:00:00+00:00,139.56110145274747,139.9935162667738,138.61766458183428,139.14834594726562,276000
2024-03-25 00:00:00+00:00,138.76506133465685,141.56592026033698,138.73557987191558,140.49472045898438,316300
2024-03-26 00:00:00+00:00,140.3669608484898,141.8214346962822,140.16057560865636,140.73057556152344,314200
2024-03-27 00:00:00+00:00,141.19248714565185,142.6469611513552,141.19248714565185,142.16542053222656,218200
2024-03-28 00:00:00+00:00,142.32264648168893,142.8435056522918,141.17280944928586,141.40867614746094,247800
2024-04-01 00:00:00+00:00,141.3104064401594,141.3104064401594,139.6692065582011,139.83627319335938,204400
2024-04-02 00:00:00+00:00,139.39403603157587,139.39403603157587,137.96904356071133,138.2049102783203,202600
2024-04-03 00:00:00+00:00,138.2442220352944,138.75525912235724,137.4580145926577,138.4506072998047,258700
2024-04-04 00:00:00+00:00,139.38422527297595,140.28835860425622,138.53905487700482,139.30560302734375,403600
2024-04-05 00:00:00+00:00,138.94197901660735,140.29817142544996,138.51938634891317,139.2859344482422,288300
2024-04-08 00:00:00+00:00,139.22697511947032,139.92473814879116,137.9690492318339,138.08697509765625,312500
2024-04-09 00:00:00+00:00,137.9985303443552,138.6668119055065,136.95681187717116,137.8904266357422,242600
2024-04-10 00:00:00+00:00,136.58333829055294,137.80196035819927,136.06247913965615,136.99609375,200700
2024-04-11 00:00:00+00:00,136.8585219403811,137.62507001061408,136.0624924055744,136.73077392578125,265300
2024-04-12 00:00:00+00:00,135.78731940104075,136.55386745619307,133.61543824332853,134.83404541015625,299200
2024-04-15 00:00:00+00:00,136.21975162430175,137.39905532186816,135.45320347110058,135.8168182373047,319600
2024-04-16 00:00:00+00:00,135.41388105938884,136.98629594256428,134.9913033694855,136.20008850097656,281700
2024-04-17 00:00:00+00:00,136.48506955254786,137.07471377269673,135.96421041003748,136.01333618164062,565400
2024-04-18 00:00:00+00:00,136.00352025357776,137.03541643065617,135.83645363377002,136.7111053466797,246600
2024-04-19 00:00:00+00:00,136.66197870493858,137.50714904264532,136.3769862053712,136.93714904785156,276600
2024-04-22 00:00:00+00:00,137.14354256824086,138.71594248027216,136.84871289859126,137.9002685546875,298800
2024-04-23 00:00:00+00:00,137.35973268378186,138.72576215188246,137.1140438226439,137.73316955566406,417200
2024-04-24 00:00:00+00:00,137.94017741981804,138.87653147802698,137.63463173089642,137.9993133544922,559200
2024-04-25 00:00:00+00:00,137.83172601752753,139.22148033338138,136.9249401273713,138.16683959960938,694400
2024-04-26 00:00:00+00:00,139.96072019609775,146.37722385560056,139.86215029277344,141.27162170410156,489500
2024-04-29 00:00:00+00:00,142.81907557977425,145.89427928209193,142.29668814771085,144.27783203125,676700
2024-04-30 00:00:00+00:00,143.64704938173992,144.00188006311416,141.99116785544027,142.30657958984375,585100
2024-05-01 00:00:00+00:00,142.90779197575267,145.0959115744454,142.50367641030576,143.2921905517578,359600
2024-05-02 00:00:00+00:00,143.66672653307114,144.62279750839605,143.20347502792788,143.82443237304688,356500
2024-05-03 00:00:00+00:00,144.99733957619893,145.01705656535643,142.75993505599067,144.70164489746094,303300
2024-05-06 00:00:00+00:00,145.6380109881033,146.93906166714925,145.0466366209839,146.89962768554688,260200
2024-05-07 00:00:00+00:00,146.18996631626726,148.22038000849503,146.18996631626726,147.56985473632812,392900
2024-05-08 00:00:00+00:00,147.5698554123631,148.70333411691598,147.33329666513077,148.62448120117188,223500
2024-05-09 00:00:00+00:00,148.83149683007565,149.55100912682533,146.49553708987045,146.93907165527344,299100
2024-05-10 00:00:00+00:00,146.81091416764426,146.8601991215895,145.96326409461795,146.35752868652344,186300
2024-05-13 00:00:00+00:00,146.39693944512024,147.33329335913,144.75092434499336,145.7464141845703,167500
2024-05-14 00:00:00+00:00,146.17026559736152,146.18011657300994,145.35218342881822,145.7760009765625,137600
2024-05-15 00:00:00+00:00,145.83512870330233,146.20966123378906,144.66221608283095,145.16488647460938,211100
2024-05-16 00:00:00+00:00,145.25360102734965,145.77598844530235,144.32709804768825,145.42115783691406,235500
2024-05-17 00:00:00+00:00,145.72672397811428,146.04212061977157,145.01706273481443,145.54930114746094,169500
2024-05-20 00:00:00+00:00,145.47044189007684,146.27867300849294,144.92833748621922,146.0421142578125,163400
2024-05-21 00:00:00+00:00,145.81542591554006,146.54478909938527,144.97762680799963,146.45608520507812,280400
2024-05-22 00:00:00+00:00,145.94356728984167,146.69264748138548,145.3521779009629,146.65321350097656,283300
2024-05-23 00:00:00+00:00,146.52509005636216,146.81091873468597,145.44088119446465,145.5985870361328,171700
2024-05-24 00:00:00+00:00,146.3476706931177,146.69265034998594,145.24375985459082,145.96327209472656,162300
2024-05-28 00:00:00+00:00,145.50000833996756,145.65771417211351,143.72587036712122,144.60308837890625,318400
2024-05-29 00:00:00+00:00,143.55829856765294,144.59322241192257,142.43467083264318,142.7599334716797,229700
2024-05-30 00:00:00+00:00,143.0457851028327,144.86920812986727,142.91764722711133,144.04127502441406,328100
2024-05-31 00:00:00+00:00,143.99198720421427,145.70700435109305,143.82443039141992,145.5690155029297,358900
2024-06-03 00:00:00+00:00,146.36738597670356,146.36738597670356,144.1792662761015,146.0322723388672,266200
2024-06-04 00:00:00+00:00,145.52957519376145,146.25895338213252,144.5932212619761,146.06182861328125,287900
2024-06-05 00:00:00+00:00,145.59857530686557,146.07167775410056,144.96776703066703,145.7957000732422,229200
2024-06-06 00:00:00+00:00,145.88440880600294,145.88440880600294,143.31189066428476,143.86386108398438,197600
2024-06-07 00:00:00+00:00,143.67658907927066,144.2285444662039,143.36117740693376,143.45974731445312,179100
2024-06-10 00:00:00+00:00,142.75009581206558,143.71601780497423,141.92216267528673,143.49917602539062,125800
2024-06-11 00:00:00+00:00,142.82893807831448,143.64702017849177,142.2769826949795,143.41046142578125,147700
2024-06-12 00:00:00+00:00,144.13983331840817,144.20882021847441,142.0009987818651,143.7357177734375,221300
2024-06-13 00:00:00+00:00,143.79485369911018,144.42566197237792,142.93735269754535,143.7357177734375,232400
2024-06-14 00:00:00+00:00,143.00636304985403,143.29220679035612,141.61660841001208,142.67124938964844,141500
2024-06-17 00:00:00+00:00,142.78950669021356,144.57351074359278,142.4938270435314,144.22854614257812,303800
2024-06-18 00:00:00+00:00,144.3763984719628,145.5690282956282,144.3665474961056,144.58338928222656,219900
2024-06-20 00:00:00+00:00,144.55378713835458,145.41128806458576,143.5779993315143,143.7159881591797,199900
2024-06-21 00:00:00+00:00,143.77515184732147,145.0269175512493,143.22319643005923,144.7410888671875,444100
2024-06-24 00:00:00+00:00,145.1057497127053,146.10123951643405,144.5636453484352,144.61293029785156,182900
2024-06-25 00:00:00+00:00,144.68193909619097,144.69180511136068,142.42483245194498,142.7796630859375,194500
2024-06-26 00:00:00+00:00,142.17841761130256,142.71065602338638,140.90694999153433,141.64617919921875,192400
2024-06-27 00:00:00+00:00,141.8038787841797,141.81374479960695,140.22686540055793,141.8038787841797,377300
2024-06-28 00:00:00+00:00,141.71516001919514,142.24741344807995,138.07815006722117,138.78781127929688,435100
2024-07-01 00:00:00+00:00,139.34964111843303,139.44819599073853,136.40257521077578,136.5504150390625,306400
2024-07-02 00:00:00+00:00,136.491272599644,138.48226741702817,135.78161137839135,138.38369750976562,259400
2024-07-03 00:00:00+00:00,138.8568114362274,139.3693328297382,138.5512657871117,139.19192504882812,143300
2024-07-05 00:00:00+00:00,138.96524481699842,139.40877934883025,137.7233300802806,138.87652587890625,207000
2024-07-08 00:00:00+00:00,139.61574152734963,140.45354059235936,139.46790171100946,139.47775268554688,249300
2024-07-09 00:00:00+00:00,138.8371161215429,139.24123173846667,137.7430561828335,138.0288848876953,238400
2024-07-10 00:00:00+00:00,138.7287020600608,139.596069272843,138.55129424271482,139.2609405517578,142000
2024-07-11 00:00:00+00:00,139.17222038959497,141.2420682548545,138.72868585837,140.0494384765625,244500
2024-07-12 00:00:00+00:00,141.35048778455212,143.40061863947534,141.35048778455212,142.51353454589844,263900
2024-07-15 00:00:00+00:00,142.68107974600557,143.59773173075385,141.0843495631189,141.37017822265625,319900
2024-07-16 00:00:00+00:00,141.78415260241513,143.21332590696588,141.78415260241513,142.48394775390625,178800
2024-07-17 00:00:00+00:00,142.26712660580225,143.67659816625988,142.26712660580225,142.7796630859375,242300
2024-07-18 00:00:00+00:00,142.53322997494314,145.13531585109473,142.5233790010456,144.1792449951172,434200
2024-07-19 00:00:00+00:00,144.48480601215567,144.48480601215567,142.58253011112916,143.84414672851562,251200
2024-07-22 00:00:00+00:00,143.89340836779806,145.44085340447666,143.1640302691908,145.076171875,235700
2024-07-23 00:00:00+00:00,145.74640885034253,146.3772170993977,143.5780064341938,143.94268798828125,234500
2024-07-24 00:00:00+00:00,143.97229844785738,144.52425389109206,141.83344854583623,142.07000732421875,250600
2024-07-25 00:00:00+00:00,141.21967933329532,142.4259257728754,139.627830512981,139.89479064941406,558100
2024-07-26 00:00:00+00:00,141.51630008001658,149.58428951716638,140.74509531827985,145.00650024414062,562800
2024-07-29 00:00:00+00:00,144.92740525288843,146.67745384948998,143.53329848802352,146.13365173339844,390900
2024-07-30 00:00:00+00:00,145.71840883903909,146.23253537707453,143.77061786481514,144.10678100585938,411000
2024-07-31 00:00:00+00:00,144.84832235848688,147.17183390542505,143.77061491193157,145.32290649414062,280600
2024-08-01 00:00:00+00:00,145.2240269005454,147.854025638271,143.7903626524537,145.37232971191406,335300
2024-08-02 00:00:00+00:00,144.92742013520137,145.34268313374403,142.12932449303202,144.04745483398438,213500
2024-08-05 00:00:00+00:00,141.81292895388046,141.81292895388046,137.90746520714976,139.09393310546875,448500
2024-08-06 00:00:00+00:00,139.7366018608207,144.44293065614994,139.5190810047534,143.29600524902344,476000
2024-08-07 00:00:00+00:00,144.36385107771335,145.59975834869604,141.85249414125033,141.9810333251953,353600
2024-08-08 00:00:00+00:00,142.83131040087508,144.5121409457321,142.83131040087508,143.9188995361328,268600
2024-08-09 00:00:00+00:00,143.7706029981527,143.7706029981527,141.85247278843903,142.32705688476562,263200
2024-08-12 00:00:00+00:00,142.346840835665,142.55446478495588,141.16037300801764,141.67449951171875,221100
2024-08-13 00:00:00+00:00,141.89202012155909,143.66184757745603,141.48665404950646,142.74232482910156,212000
2024-08-14 00:00:00+00:00,142.50505145879362,143.17737774735926,141.87226756324318,142.2776336669922,115700
2024-08-15 00:00:00+00:00,143.36523621957753,145.67885089360948,143.36523621957753,145.35256958007812,277500
2024-08-16 00:00:00+00:00,144.4627031750213,145.18446866448798,143.96834035737857,145.06582641601562,250600
2024-08-19 00:00:00+00:00,144.67035312206107,146.06444490716035,144.27485378602537,145.31301879882812,191200
2024-08-20 00:00:00+00:00,145.3228902292091,146.63789713979097,145.3228902292091,146.44015502929688,387200
2024-08-21 00:00:00+00:00,146.49948266773362,147.8837076762525,145.797495881253,147.6464080810547,267300
2024-08-22 00:00:00+00:00,147.8837043931481,148.70433341563083,146.99384224597927,147.31024169921875,200400
2024-08-23 00:00:00+00:00,147.97270682622252,148.83289344432845,147.75518594331507,148.74391174316406,221400
2024-08-26 00:00:00+00:00,148.9811827812875,150.94875237595002,148.44727753591675,148.46705627441406,235500
2024-08-27 00:00:00+00:00,148.31872961210144,149.83147865258644,148.15064806168712,149.4953155517578,208300
2024-08-28 00:00:00+00:00,149.22835866924996,150.25664181833932,149.22835866924996,149.83148193359375,249000
2024-08-29 00:00:00+00:00,150.83010101909915,151.1860428567918,149.50521226809275,150.56314086914062,187100
2024-08-30 00:00:00+00:00,150.48404676221847,151.71007204710835,149.93036279057682,151.462890625,178500
2024-09-03 00:00:00+00:00,150.39507346154718,150.6620336366097,148.04190136403116,148.34840393066406,362400
2024-09-04 00:00:00+00:00,147.9133594343612,149.19869067658468,147.9133594343612,149.03060913085938,175800
2024-09-05 00:00:00+00:00,149.3766785449895,150.049004770248,148.2594136913465,149.02073669433594,200600
2024-09-06 00:00:00+00:00,148.68459665967467,151.3936958059805,148.68459665967467,150.66204833984375,319100
2024-09-09 00:00:00+00:00,150.84990457654416,151.33437056953474,149.7326395797545,150.1973419189453,241500
2024-09-10 00:00:00+00:00,150.15776068761517,151.06738648156437,149.73261589678557,149.80181884765625,158100
2024-09-11 00:00:00+00:00,149.0899497330591,149.17894651681053,146.95431357142107,149.13938903808594,178000
2024-09-12 00:00:00+00:00,149.18882138814303,150.29618935268383,148.27919554773348,150.24676513671875,200400
2024-09-13 00:00:00+00:00,150.4741591814065,151.2849063697999,150.1874202941439,150.56314086914062,138600
2024-09-16 00:00:00+00:00,151.31457619369007,151.4431153638997,150.35552613370714,151.26515197753906,182900
2024-09-17 00:00:00+00:00,152.26375260320745,153.81605914087024,150.15776210632313,151.3046875,259900
2024-09-18 00:00:00+00:00,152.0264616154866,153.73696797737182,150.98831167657386,151.34425354003906,214200
2024-09-19 00:00:00+00:00,153.27224858899393,157.01951202011722,153.27224858899393,155.13104248046875,412400
2024-09-20 00:00:00+00:00,154.54770591003242,154.54770591003242,152.73833613702962,154.1522216796875,663300
2024-09-23 00:00:00+00:00,154.409284095707,155.14094651336768,152.99541364735992,154.20166015625,315800
2024-09-24 00:00:00+00:00,154.4191666074256,155.30902875503682,154.27086379286854,154.86410522460938,246200
2024-09-25 00:00:00+00:00,155.52656216623072,156.09012799381142,154.11267651067246,155.3683624267578,284100
2024-09-26 00:00:00+00:00,156.15933390398197,157.2667018207363,155.92203431321047,156.59437561035156,371600
2024-09-27 00:00:00+00:00,156.89097665107286,159.72862948488472,156.47571369443705,158.08734130859375,354300
2024-09-30 00:00:00+00:00,157.4941099866389,158.61137485449174,157.13816813145831,158.38397216796875,289800
2024-10-01 00:00:00+00:00,158.7300086444626,158.7300086444626,157.25681708676157,158.16644287109375,192200
2024-10-02 00:00:00+00:00,158.05769121001555,158.30487263533544,156.1791184122872,156.960205078125,186900
2024-10-03 00:00:00+00:00,156.20876968726492,158.65092323114067,154.87398403520925,157.14805603027344,367000
2024-10-04 00:00:00+00:00,158.1367779746566,159.6495269653402,157.53365474337548,158.76956176757812,350500
2024-10-07 00:00:00+00:00,157.59298385754613,157.84016527492022,156.22853760587918,156.90087890625,223300
2024-10-08 00:00:00+00:00,156.49550109976488,157.22716354203448,155.32881202651103,156.881103515625,205900
2024-10-09 00:00:00+00:00,156.5647197212444,158.24555038414007,156.33730194909901,157.8994903564453,152600
2024-10-10 00:00:00+00:00,156.26808906189396,157.5830959620816,156.26808906189396,157.42489624023438,168500
2024-10-11 00:00:00+00:00,159.12551442298704,160.09446137161007,158.54216988868643,159.7286376953125,194400
2024-10-14 00:00:00+00:00,163.12986016836592,165.8686195199857,161.61711104045096,165.3050537109375,469700
2024-10-15 00:00:00+00:00,165.43359154835622,167.74720606808984,164.61294740603904,166.7782440185547,397300
2024-10-16 00:00:00+00:00,166.79802860429376,167.2923914721706,164.04937226583914,164.1680145263672,330000
2024-10-17 00:00:00+00:00,165.09740265587808,166.42230647550423,164.64259731140308,165.9971466064453,238200
2024-10-18 00:00:00+00:00,167.1935230900163,167.1935230900163,165.88839791512035,166.72882080078125,171500
2024-10-21 00:00:00+00:00,166.57061476107143,166.59039349875482,164.42508186849375,164.45474243164062,217900
2024-10-22 00:00:00+00:00,163.8516310970508,164.49429679435704,162.95188705141607,163.94061279296875,228500
2024-10-23 00:00:00+00:00,164.63271048587404,166.0861384683725,164.28666554374772,165.75985717773438,318100
2024-10-24 00:00:00+00:00,166.8702374292665,166.8801458516532,164.71891470972054,165.115478515625,547300
2024-10-25 00:00:00+00:00,167.4650628414737,168.38706046694205,163.19218799053615,167.4551544189453,518900
2024-10-28 00:00:00+00:00,168.43660622549515,169.93360993018155,167.30642591243105,167.6435089111328,350000
2024-10-29 00:00:00+00:00,167.57410769776925,168.03015227664858,166.19608066645563,167.2469482421875,338100
2024-10-30 00:00:00+00:00,166.89996096877366,168.7340173310146,166.67193113064613,167.5740966796875,290300
2024-10-31 00:00:00+00:00,167.63358953292143,168.81334223932782,166.41418801075508,166.46376037597656,329900
2024-11-01 00:00:00+00:00,166.65212193451416,169.5172290920819,166.17624539365193,167.95083618164062,316300
2024-11-04 00:00:00+00:00,168.1689247386394,169.10083062364006,166.7314019732371,166.8107147216797,191800
2024-11-05 00:00:00+00:00,166.29522247706373,168.89265097732255,166.29522247706373,168.84307861328125,206200
2024-11-06 00:00:00+00:00,173.6413832769268,173.6413832769268,170.65731460415344,171.6685333251953,264100
2024-11-07 00:00:00+00:00,172.69958322912856,173.94874031983002,172.04526428898612,173.2052001953125,412300
2024-11-08 00:00:00+00:00,173.19527193268874,176.30822589753487,172.9870891748117,174.2461395263672,309200
2024-11-11 00:00:00+00:00,174.8013310536019,176.4965940414732,174.38493527786133,174.63278198242188,189100
2024-11-12 00:00:00+00:00,175.12845987623115,175.71338954396822,173.44310546000395,174.1866455078125,179800
2024-11-13 00:00:00+00:00,173.98837280273438,174.87070639589882,173.5422517953791,173.98837280273438,168400
2024-11-14 00:00:00+00:00,173.6413772997805,174.27586419308435,172.41206745314466,172.60043334960938,198200
2024-11-15 00:00:00+00:00,171.48016636418956,172.26335523611306,164.73873347777493,165.0559844970703,620500
2024-11-18 00:00:00+00:00,164.9568381563119,166.374529052943,162.91458390352122,165.25425720214844,384400
2024-11-19 00:00:00+00:00,164.9865714847788,166.22580484990965,164.76846520232692,165.46243286132812,287600
2024-11-20 00:00:00+00:00,165.56157762118974,167.48487022471176,164.22319953558326,167.27667236328125,221800
2024-11-21 00:00:00+00:00,167.23704111507786,168.7637701255857,166.29522668391402,168.4167938232422,205100
2024-11-22 00:00:00+00:00,168.71418395585027,170.5879193701139,168.71418395585027,170.03273010253906,241600
2024-11-25 00:00:00+00:00,170.5681001615967,172.52113334713098,170.26077267722485,171.01422119140625,270100
2024-11-26 00:00:00+00:00,171.37111088426272,171.37111088426272,169.68575646744296,170.55816650390625,140300
2024-11-27 00:00:00+00:00,171.1827451817615,172.38232978339846,170.04265649102177,170.25083923339844,167200
2024-11-29 00:00:00+00:00,171.1034372324088,171.99569439258877,170.60774385254038,171.4702606201172,117300
2024-12-02 00:00:00+00:00,171.49007895547842,171.6189640761211,169.36851187627968,171.27197265625,170900
2024-12-03 00:00:00+00:00,171.9560440443531,171.9560440443531,169.6163705013238,170.9150848388672,160100
2024-12-04 00:00:00+00:00,170.40945641929756,171.40084310278345,169.55686326640526,171.10342407226562,173400
2024-12-05 00:00:00+00:00,170.5284168587357,170.95472099605755,169.0611688124898,169.6262664794922,245000
2024-12-06 00:00:00+00:00,170.12197844051488,171.16292246338676,169.3784383513996,169.67584228515625,209200
2024-12-09 00:00:00+00:00,170.08231125491594,171.97586360965974,168.76376504007473,169.31893920898438,301700
2024-12-10 00:00:00+00:00,169.24954608563394,169.8939414180601,166.7413388343955,169.4379119873047,287000
2024-12-11 00:00:00+00:00,170.39956239165582,172.60044222508768,170.27067727116065,170.8258514404297,418600
2024-12-12 00:00:00+00:00,170.19136148604866,171.11335902939098,169.30902788401207,170.16162109375,178300
2024-12-13 00:00:00+00:00,169.43791530566537,169.52713648377429,168.35730736449344,168.73402404785156,153200
2024-12-16 00:00:00+00:00,168.67454788295373,169.45773679118838,166.1465085424201,166.18617248535156,236100
2024-12-17 00:00:00+00:00,165.46243795073002,165.47236149946696,161.43741027735823,161.6852569580078,511900
2024-12-18 00:00:00+00:00,162.2800846968912,163.00379272258945,156.54987101577174,156.8472900390625,468600
2024-12-19 00:00:00+00:00,157.14470235126,160.1783583984686,156.8671152819511,157.50160217285156,404700
2024-12-20 00:00:00+00:00,157.35290798166514,158.40377552838513,156.11367452989887,156.8175506591797,730200
2024-12-23 00:00:00+00:00,155.81626952760055,157.5313645438521,155.6080867602522,157.15464782714844,194900
2024-12-24 00:00:00+00:00,157.41238034244816,158.04686723070105,156.55978716816827,157.97747802734375,100500
2024-12-26 00:00:00+00:00,157.05549208244994,158.2550767438941,157.05549208244994,157.48179626464844,164500
2024-12-27 00:00:00+00:00,156.46066695799547,158.20550222350303,156.25246908071483,156.78781127929688,145000
2024-12-30 00:00:00+00:00,155.64772933382284,156.13351431708455,153.66495571173593,155.3800506591797,221700
2024-12-31 00:00:00+00:00,155.92529903439856,156.8869453440104,154.83476761297464,155.74685668945312,317100
2025-01-02 00:00:00+00:00,156.29212949156047,156.7481740946318,152.12830778326503,152.8321990966797,239400
2025-01-03 00:00:00+00:00,152.71321317414572,154.37875083338028,151.55329245501395,154.16064453125,250700
2025-01-06 00:00:00+00:00,152.67357436539373,153.30806134207748,150.13562645865872,151.60287475585938,369000
2025-01-07 00:00:00+00:00,154.5770178883761,154.7158114261659,151.28562179477737,152.10845947265625,361200
2025-01-08 00:00:00+00:00,151.5731237318188,152.93131877556544,150.78001128473923,152.822265625,228600
2025-01-10 00:00:00+00:00,151.4045877964353,152.97098069871626,151.2657942545806,152.1282958984375,350800
2025-01-13 00:00:00+00:00,151.61277617541046,153.3675350483744,151.61277617541046,152.56451416015625,349300
2025-01-14 00:00:00+00:00,153.47657937698537,154.11106628788028,152.15803319253664,153.27830505371094,196900
2025-01-15 00:00:00+00:00,154.7752974610105,155.56840990130098,152.8420962878635,154.22012329101562,206100
2025-01-16 00:00:00+00:00,154.54727983019419,155.8162536598229,153.97227369999345,155.06280517578125,346300
2025-01-17 00:00:00+00:00,155.61798490423345,156.58953971820048,154.3390874798286,154.7455596923828,231900
2025-01-21 00:00:00+00:00,155.37014033219427,158.87964294422474,155.37014033219427,158.45335388183594,270900
2025-01-22 00:00:00+00:00,157.96756893956675,159.36542795687828,156.9761821404571,157.6999053955078,280000
2025-01-23 00:00:00+00:00,157.09515057542757,158.43351360737364,156.3714273584646,158.24514770507812,149800
2025-01-24 00:00:00+00:00,158.27490184448052,159.08784630871037,155.86583910131836,156.93653869628906,329600
2025-01-27 00:00:00+00:00,156.88695593141347,157.55118325024728,155.30073105272626,157.09515380859375,317000
2025-01-28 00:00:00+00:00,156.21281132901348,158.96886517568004,156.21281132901348,157.05548095703125,204300
2025-01-29 00:00:00+00:00,157.41238898086985,157.45205292270268,155.27098994274112,155.75677490234375,265800
2025-01-30 00:00:00+00:00,156.46066264313475,157.31324071767784,155.23133763909388,156.7679901123047,274200
2025-01-31 00:00:00+00:00,156.53995727747005,158.0171289383886,155.40977702002877,155.79641723632812,834100
2025-02-03 00:00:00+00:00,153.24858481295388,155.39989251445735,152.81237216797376,154.6365203857422,364600
2025-02-04 00:00:00+00:00,154.7455567641956,157.09515368758528,154.7455567641956,156.34169006347656,302400
2025-02-05 00:00:00+00:00,157.3657401309949,158.7377738146127,156.86862823642628,157.405517578125,262600
2025-02-06 00:00:00+00:00,158.91672849887215,158.91672849887215,154.47254690067905,155.5463104248047,446600
2025-02-07 00:00:00+00:00,156.7095614069899,156.9879428767107,141.2195517045442,142.35296630859375,1221500
2025-02-10 00:00:00+00:00,143.42671234404355,143.76475994786696,140.08611994582418,142.45237731933594,621900
2025-02-11 00:00:00+00:00,141.4482355761403,142.2436177138252,139.44983586924226,141.46810913085938,377300
2025-02-12 00:00:00+00:00,140.15573634540485,142.66118467726213,139.1217350532375,140.8815155029297,423500
2025-02-13 00:00:00+00:00,141.9254390361858,142.94948827582462,140.64289708530572,141.94532775878906,665900
2025-02-14 00:00:00+00:00,142.8600219668595,144.47065968761524,141.8956236556128,143.9536590576172,512800
2025-02-18 00:00:00+00:00,143.9536551030892,146.43921456469178,143.0687965415847,146.0514678955078,489600
2025-02-19 00:00:00+00:00,145.29586323172052,146.63807140879464,144.76892583969018,146.19065856933594,331000
2025-02-20 00:00:00+00:00,146.12106653891558,146.5684641946975,145.07712856165745,145.83273315429688,283100
2025-02-21 00:00:00+00:00,146.18072203982962,146.53864320961054,144.3612906909976,145.4947052001953,451900
2025-02-24 00:00:00+00:00,145.33563586593084,146.43922495198873,143.52615633827182,144.76893615722656,353300
2025-02-25 00:00:00+00:00,145.03738005789472,147.47322545568133,144.87830060097633,146.8568115234375,336700
2025-02-26 00:00:00+00:00,145.80290552597427,148.3182903766483,145.7730800274011,145.79296875,735600
2025-02-27 00:00:00+00:00,145.38534354320856,146.3298531289336,144.52037368279164,144.788818359375,262800
2025-02-28 00:00:00+00:00,145.31574014709147,146.1011701977845,143.7945790943615,145.90232849121094,348700
2025-03-03 00:00:00+00:00,146.1210654941781,147.9802590488003,144.8484603100682,145.74325561523438,394100
2025-03-04 00:00:00+00:00,144.69933199850888,147.0954151104243,144.3016485280213,145.09703063964844,490100
2025-03-05 00:00:00+00:00,145.20638633523407,147.99021595781406,145.20638633523407,147.58258056640625,445100
2025-03-06 00:00:00+00:00,146.70765681681692,150.6249008910568,146.21054493268804,150.27691650390625,471700
2025-03-07 00:00:00+00:00,149.64061450303043,152.4741583222623,148.3182950654323,151.8975067138672,480200
2025-03-10 00:00:00+00:00,151.19162258533123,153.1104672632765,149.3721911863349,149.70028686523438,391100
2025-03-11 00:00:00+00:00,149.47159652202163,149.69032696299743,146.41933746583285,147.03575134277344,304000
2025-03-12 00:00:00+00:00,147.38373408131363,147.38373408131363,144.71920654402385,145.18649291992188,299700
2025-03-13 00:00:00+00:00,145.56430645519941,146.34973656191247,142.92960435057037,143.923828125,238400
2025-03-14 00:00:00+00:00,144.3911182875945,146.04153343725235,143.7051014379987,145.8128662109375,223600
2025-03-17 00:00:00+00:00,145.66371877619906,147.14511765183084,145.01747939531282,146.9860382080078,225200
2025-03-18 00:00:00+00:00,146.53864106581256,146.67783178698824,144.93794018696707,145.45494079589844,219900
2025-03-19 00:00:00+00:00,145.49470932863062,146.60825031657424,144.6297394648877,146.13101196289062,279600
2025-03-20 00:00:00+00:00,145.28591830490512,146.56846023962459,142.8997722540396,144.3612823486328,332800
2025-03-21 00:00:00+00:00,143.16821923766327,144.6197925800202,141.53769290317146,143.98348999023438,601900
2025-03-24 00:00:00+00:00,144.90812598795733,147.32408265905113,144.07298159577567,147.13519287109375,463800
2025-03-25 00:00:00+00:00,147.63230071240747,148.36801663108272,145.08707498608157,146.3596954345703,325200
2025-03-26 00:00:00+00:00,146.2006014198372,147.84106449361335,145.45493362800258,147.70187377929688,630400
2025-03-27 00:00:00+00:00,147.42349327469174,149.024194084689,146.1807136138445,148.48731994628906,312700
2025-03-28 00:00:00+00:00,148.4276676539648,149.13357324239885,144.91805877731247,146.081298828125,239800
2025-03-31 00:00:00+00:00,145.73332806567677,148.22882437034573,145.2561048840848,147.52293395996094,372500
2025-04-01 00:00:00+00:00,148.02003908914818,149.16339035142067,146.52870344062717,148.23876953125,240000
2025-04-02 00:00:00+00:00,147.1451222051317,150.2570475496189,147.1451222051317,149.66050720214844,247600
2025-04-03 00:00:00+00:00,145.91227770277482,149.18328246169622,145.61402270281934,147.81124877929688,352900
2025-04-04 00:00:00+00:00,144.38118148289823,147.10536015695996,139.2310943089737,139.3702850341797,531600
2025-04-07 00:00:00+00:00,135.55246347813676,141.299075583748,130.09418475781067,133.87222290039062,629900
2025-04-08 00:00:00+00:00,136.58646840487157,138.50531302754496,130.52169724957807,132.88795471191406,473800
2025-04-09 00:00:00+00:00,132.41071027286026,143.5857905602115,130.56146868221785,142.91966247558594,491800
2025-04-10 00:00:00+00:00,139.19132534122247,142.54185453232802,136.77536890471205,139.94692993164062,309000
2025-04-11 00:00:00+00:00,140.05631233486017,143.8741435423267,138.9328496728098,143.27760314941406,203000
2025-04-14 00:00:00+00:00,144.9578279234257,145.55435307983893,142.95942844721688,144.9478759765625,249300
2025-04-15 00:00:00+00:00,145.25609318434687,145.69353888269185,142.93955007036794,143.1085662841797,250700
2025-04-16 00:00:00+00:00,143.22788746737842,144.97773117780812,141.74650361875138,144.16246032714844,307700
2025-04-17 00:00:00+00:00,144.5601299718575,144.91805113559164,139.89723323770653,142.99920654296875,390600
2025-04-21 00:00:00+00:00,142.47228159895667,143.2179494909568,140.2849921498867,141.75643920898438,291600
2025-04-22 00:00:00+00:00,143.66533506688444,145.97194150004367,142.7605877933271,145.1765594482422,217800
2025-04-23 00:00:00+00:00,147.01587130133106,148.45750797579856,146.36963188706406,147.19483947753906,537000
2025-04-24 00:00:00+00:00,147.07552005752225,151.12201822209224,144.61980121841248,150.58514404296875,424500
2025-04-25 00:00:00+00:00,149.978658877675,152.1162338736524,146.71760618867617,148.19898986816406,220500
2025-04-28 00:00:00+00:00,148.93472507698547,150.15761607695163,147.4235006856442,148.83529663085938,235200
2025-04-29 00:00:00+00:00,148.89494964595022,151.1021276781012,148.14928180186274,149.4318389892578,359900
2025-04-30 00:00:00+00:00,148.2089404691736,149.12362449113388,146.35968370263532,149.08384704589844,556200
2025-05-01 00:00:00+00:00,148.03677349944607,150.11098546490427,146.5509307821878,147.86724853515625,445300
2025-05-02 00:00:00+00:00,152.56413872745716,152.5741054133365,147.37860140310275,151.57688903808594,431600
2025-05-05 00:00:00+00:00,151.00847048787122,152.79349634538158,150.46001364695312,151.05833435058594,267600
2025-05-06 00:00:00+00:00,149.8317600445186,151.61677065702543,149.0040686289639,150.49989318847656,312000
2025-05-07 00:00:00+00:00,151.45723894936714,152.72369288222805,150.20073648679445,150.96859741210938,318400
2025-05-08 00:00:00+00:00,151.36746843989067,154.13974399022413,150.81901160098963,152.93310546875,302500
2025-05-09 00:00:00+00:00,153.48157299222058,153.8704867623785,152.5142719096689,152.89321899414062,231600
2025-05-12 00:00:00+00:00,155.35633463740874,156.15411079233525,153.2721560351031,155.08709716796875,352500
2025-05-13 00:00:00+00:00,155.87489199381622,155.87489199381622,152.77354840216572,153.2123260498047,339400
2025-05-14 00:00:00+00:00,153.19238337450628,153.19238337450628,150.54976591692431,152.05555725097656,350100
2025-05-15 00:00:00+00:00,151.92592327073905,155.04720022779077,151.92592327073905,154.5186767578125,278100
2025-05-16 00:00:00+00:00,154.74802922591164,156.71254669507653,154.15967521864064,156.57293701171875,278600
2025-05-19 00:00:00+00:00,155.92475546271484,157.8992396557861,155.87489159991557,157.6399688720703,185400
2025-05-20 00:00:00+00:00,159.8138947102219,159.8138947102219,157.47044530112373,158.08871459960938,388100
2025-05-21 00:00:00+00:00,156.423358207476,157.21115243352105,155.39622657812305,156.01449584960938,319800
2025-05-22 00:00:00+00:00,155.92475741968343,156.82224609607596,155.1269812538263,156.2139434814453,278900
2025-05-23 00:00:00+00:00,154.6882108760017,155.74525787853625,153.8306041202314,155.5059356689453,260500
2025-05-27 00:00:00+00:00,156.592897624528,157.99897646823499,156.25384768409688,157.71975708007812,352800
2025-05-28 00:00:00+00:00,157.71974721893966,158.39784705740496,156.82224334199415,156.96185302734375,364400
2025-05-29 00:00:00+00:00,157.39067400196637,158.22833216737214,156.3834908661558,157.8892822265625,232100
2025-05-30 00:00:00+00:00,157.79953286383662,158.33802303916113,156.10425276512643,157.95907592773438,335100
2025-06-02 00:00:00+00:00,157.1014720974291,158.6272272577487,154.82781981944967,156.47323608398438,349600
2025-06-03 00:00:00+00:00,155.74524832874332,157.00175071731294,155.56575668255596,155.8250274658203,397800
2025-06-04 00:00:00+00:00,156.054395099949,156.08431037372102,149.87164143762118,149.99131774902344,831900
2025-06-05 00:00:00+00:00,151.15806591006776,152.9131613214148,148.63510959911858,152.06553649902344,482400
2025-06-06 00:00:00+00:00,153.94028666711287,154.04998107682133,151.7863108653235,152.88323974609375,264700
2025-06-09 00:00:00+00:00,152.2849198217423,152.75359752052293,150.93867162454364,151.17800903320312,388400
2025-06-10 00:00:00+00:00,151.73645775860376,152.5741159195799,150.44007333824624,152.1054229736328,323500
2025-06-11 00:00:00+00:00,152.5741116440773,153.16246567758657,151.17801474823915,151.4971160888672,380800
2025-06-12 00:00:00+00:00,150.98854559682746,154.18960186429905,150.98854559682746,153.9203643798828,337200
2025-06-13 00:00:00+00:00,152.57411717368794,153.2921142365164,150.31043156681716,150.73924255371094,361200
2025-06-16 00:00:00+00:00,150.8190168845951,152.47438457789974,150.69934056706447,151.26776123046875,346200
2025-06-17 00:00:00+00:00,150.24061980887515,150.83894049253541,148.7148800018862,149.0339813232422,379700
2025-06-18 00:00:00+00:00,148.70490732954426,150.31042637060037,148.70490732954426,149.28329467773438,383200
2025-06-20 00:00:00+00:00,149.8716404123879,150.35031522209397,148.57527131429785,149.88162231445312,570500
2025-06-23 00:00:00+00:00,149.07388948626692,153.51149955316077,149.07388948626692,153.36190795898438,356500
2025-06-24 00:00:00+00:00,154.13974455356382,154.13974455356382,152.75359916517385,153.44168090820312,246600
2025-06-25 00:00:00+00:00,153.43171338575036,154.09984653678893,152.3447511795673,153.5015106201172,264700
2025-06-26 00:00:00+00:00,154.0998516570673,155.14693193787699,152.69377285758898,154.04998779296875,658200
2025-06-27 00:00:00+00:00,154.22948635333395,155.6754470364196,153.80067540476105,155.38626098632812,643100
2025-06-30 00:00:00+00:00,155.5956721427578,156.0643650634484,154.1796266946574,155.9945526123047,315500
2025-07-01 00:00:00+00:00,155.99454752498934,159.35517699739853,155.52586983589788,158.56736755371094,338300
2025-07-02 00:00:00+00:00,158.57734921426047,160.08314043416175,158.2083688153944,159.8737335205078,293500
2025-07-03 00:00:00+00:00,160.15295815162165,160.91083712934912,159.37513058554714,160.5917205810547,235100
2025-07-07 00:00:00+00:00,160.50198098790676,161.91802648921993,160.10310050337057,160.511962890625,313900
2025-07-08 00:00:00+00:00,160.45211702067627,162.12744853055042,159.40505194535942,159.6044921875,342700
2025-07-09 00:00:00+00:00,159.48481010798295,159.56458924522028,157.6599175028191,159.28536987304688,252800
2025-07-10 00:00:00+00:00,158.7468889815204,159.91363040111747,157.8892822265625,157.8892822265625,361600
2025-07-11 00:00:00+00:00,158.11863095765145,158.11863095765145,156.19401059720994,157.46046447753906,292000
2025-07-14 00:00:00+00:00,156.7025851208349,158.4975776913543,156.25384078228376,157.1214141845703,276600
2025-07-15 00:00:00+00:00,157.30091720237564,157.560187983209,153.6411349150525,153.7308807373047,254200
2025-07-16 00:00:00+00:00,153.49155225388785,155.17685046809117,153.12258704118602,154.54859924316406,261900
2025-07-17 00:00:00+00:00,154.30927015542414,155.97461970604328,154.07989942925087,155.59567260742188,397700
2025-07-18 00:00:00+00:00,156.41339506366586,156.77239356860005,154.48875954056155,155.9447021484375,243100
2025-07-21 00:00:00+00:00,155.98458934498964,156.2338934479991,154.80788128261622,155.0172882080078,205900
2025-07-22 00:00:00+00:00,155.67544903558425,158.91640225695076,154.7978937556552,158.7269287109375,449900
2025-07-23 00:00:00+00:00,159.62443629137653,161.3994802642871,158.69701712782512,161.2100067138672,450500
2025-07-24 00:00:00+00:00,160.9600067138672,164.27999877929688,159.7899932861328,161.82000732421875,431900
2025-07-25 00:00:00+00:00,162.0500030517578,163.08999633789062,160.77999877929688,160.99000549316406,296300
2025-07-28 00:00:00+00:00,161.1999969482422,161.97999572753906,158.16000366210938,158.6999969482422,308500
2025-07-29 00:00:00+00:00,159.0500030517578,159.60000610351562,157.22000122070312,158.82000732421875,388200
2025-07-30 00:00:00+00:00,158.8000030517578,158.92999267578125,154.9199981689453,156.7899932861328,580700
2025-07-31 00:00:00+00:00,155.77999877929688,157.35000610351562,155.17999267578125,157.13999938964844,679700
2025-08-01 00:00:00+00:00,156.97000122070312,158.1199951171875,141.08999633789062,141.35000610351562,1012300
2025-08-04 00:00:00+00:00,143.1199951171875,143.1199951171875,137.0800018310547,139.1300048828125,839000
2025-08-05 00:00:00+00:00,139.33999633789062,141.07000732421875,137.69000244140625,140.22000122070312,540800
2025-08-06 00:00:00+00:00,140.30999755859375,140.75999450683594,137.5500030517578,138.5399932861328,515300
2025-08-07 00:00:00+00:00,139.8000030517578,141.49000549316406,138.91000366210938,140.49000549316406,564000
2025-08-08 00:00:00+00:00,140.69000244140625,142.0500030517578,140.5800018310547,140.75,428700
2025-08-11 00:00:00+00:00,141.3300018310547,141.6199951171875,139.1999969482422,139.8699951171875,349500
2025-08-12 00:00:00+00:00,140.22000122070312,141.08999633789062,139.22999572753906,139.47999572753906,286100
2025-08-13 00:00:00+00:00,139.69000244140625,141.44000244140625,139.25,141.42999267578125,729900
2025-08-14 00:00:00+00:00,140.19000244140625,140.19000244140625,136.44000244140625,138.33999633789062,875800
2025-08-15 00:00:00+00:00,138.36000061035156,138.9499969482422,137.8699951171875,138.72000122070312,770500
2025-08-18 00:00:00+00:00,138.88999938964844,139.57000732421875,137.35000610351562,137.88999938964844,529500
2025-08-19 00:00:00+00:00,138.27000427246094,140.52000427246094,138.27000427246094,139.58999633789062,333100
2025-08-20 00:00:00+00:00,139.91000366210938,141.25,139.25999450683594,141.17999267578125,519200
2025-08-21 00:00:00+00:00,140.6300048828125,141.89999389648438,140.24000549316406,140.63999938964844,270400
2025-08-22 00:00:00+00:00,141.25999450683594,143.3300018310547,141.19000244140625,141.42999267578125,356500
2025-08-25 00:00:00+00:00,140.97000122070312,141.61000061035156,138.9600067138672,139.55999755859375,245800
2025-08-26 00:00:00+00:00,139.07000732421875,140.16000366210938,138.00999450683594,139.7100067138672,442900
2025-08-27 00:00:00+00:00,139.08999633789062,140.57000732421875,139.02999877929688,139.44000244140625,729100
2025-08-28 00:00:00+00:00,140.1699981689453,140.1699981689453,137.39999389648438,138.88999938964844,320800
2025-08-29 00:00:00+00:00,139.1699981689453,139.8699951171875,138.35000610351562,139.27000427246094,370700
2025-09-02 00:00:00+00:00,137.4199981689453,138.52999877929688,136.1699981689453,136.41000366210938,310600
2025-09-03 00:00:00+00:00,136.0800018310547,136.17999267578125,134.44000244140625,135.22000122070312,382300
2025-09-04 00:00:00+00:00,136.35000610351562,138.47999572753906,135.0399932861328,138.4600067138672,401800
2025-09-05 00:00:00+00:00,139.02000427246094,140.82000732421875,137.6300048828125,138.6199951171875,440800
2025-09-08 00:00:00+00:00,138.58999633789062,140.0,137.67999267578125,138.3000030517578,616100
2025-09-09 00:00:00+00:00,138.25999450683594,139.47999572753906,135.10000610351562,137.0500030517578,637100
2025-09-10 00:00:00+00:00,136.1300048828125,137.4600067138672,134.85000610351562,136.25,685100
2025-09-11 00:00:00+00:00,136.75,138.27999877929688,135.8699951171875,137.10000610351562,477500
2025-09-12 00:00:00+00:00,136.6199951171875,137.0500030517578,135.22000122070312,135.22999572753906,261300
2025-09-15 00:00:00+00:00,135.97000122070312,136.1699981689453,134.6300048828125,134.85000610351562,298000
2025-09-16 00:00:00+00:00,134.7899932861328,135.4199981689453,134.10000610351562,135.2100067138672,474800
2025-09-17 00:00:00+00:00,135.4199981689453,137.07000732421875,134.19000244140625,134.64999389648438,377400
2025-09-18 00:00:00+00:00,134.89999389648438,135.50999450683594,134.07000732421875,134.5,254800
2025-09-19 00:00:00+00:00,134.66000366210938,135.10000610351562,133.33999633789062,134.44000244140625,877200
2025-09-22 00:00:00+00:00,134.1199951171875,134.94000244140625,132.6699981689453,132.72000122070312,402100
2025-09-23 00:00:00+00:00,133.00999450683594,133.9499969482422,131.97000122070312,132.02000427246094,319700
2025-09-24 00:00:00+00:00,132.0,133.30999755859375,131.33999633789062,131.5,353300
2025-09-25 00:00:00+00:00,131.5,132.52000427246094,130.27000427246094,130.82000732421875,388700
2025-09-26 00:00:00+00:00,131.3300018310547,132.42999267578125,130.9600067138672,132.2899932861328,274400
